Verwendete Variablen und Werte:
U = [0.505 0.999 1.502 2.001 2.2   2.404 2.512 2.603 2.706 2.802 2.907 2.95
 3.001]
I = [0.01233 0.01221 0.01209 0.012   0.01178 0.01137 0.01102 0.01045 0.0099
 0.0087  0.0072  0.0062  0.00487]
error_U = [0.0056 0.008  0.011  0.013  0.014  0.015  0.016  0.016  0.017  0.017
 0.018  0.018  0.018 ]
error_I = [0.00026 0.00025 0.00025 0.00025 0.00025 0.00024 0.00024 0.00023 0.00022
 0.0002  0.00019 0.00017 0.00016]

Messung   Leistung $P$ (W)    Fehler (W)          
1         0.00622665          0.0001483486309     
2         0.01219779          0.0002681724164     
3         0.01815918          0.0003983548545     
4         0.024012            0.0005240096015     
5         0.025916            0.0005741938753     
6         0.02733348          0.0006016395467     
7         0.02768224          0.000628134569      
8         0.02720135          0.0006215991925     
9         0.0267894           0.0006186524003     
10        0.0243774           0.0005795882763     
11        0.0209304           0.0005673311105     
12        0.01829             0.0005137672722     
13        0.01461487          0.0004880962008     

Mittelwert der Leistung $P$: 0.02105621231 W
Mittelwert der Fehler: 0.000502452919 W
Gewichteter Mittelwert: 0.013286728 W
Fehler des gewichteten Mittelwerts: 0.0001015927988 W
Standardabweichung: 0.006790090857 W
Standardfehler des Mittels: 0.001883232365 W
Ergebniss: 0.02105621231 ± 0.001883232365 W

Ergebnisse für LaTeX:

\begin{table}[H] 
	 \centering 
	 \begin{tabular}{|c|c|} 
	 	 \hline Messungen & Leistung $P$ (W)  \\ \hline 
	 	 \hline 1 & $0.00623 \pm 0.00015$ \\ 
	 	 \hline 2 & $0.01220 \pm 0.00027$ \\ 
	 	 \hline 3 & $0.0182 \pm 0.0004$ \\ 
	 	 \hline 4 & $0.02401 \pm 0.00053$ \\ 
	 	 \hline 5 & $0.02592 \pm 0.00058$ \\ 
	 	 \hline 6 & $0.0273 \pm 0.0006$ \\ 
	 	 \hline 7 & $0.02768 \pm 0.00063$ \\ 
	 	 \hline 8 & $0.02720 \pm 0.00063$ \\ 
	 	 \hline 9 & $0.02679 \pm 0.00062$ \\ 
	 	 \hline 10 & $0.02438 \pm 0.00058$ \\ 
	 	 \hline 11 & $0.02093 \pm 0.00057$ \\ 
	 	 \hline 12 & $0.01829 \pm 0.00052$ \\ 
	 	 \hline 13 & $0.01461 \pm 0.00049$ \\ 
	 	 \hline 
	 \end{tabular} 
	 \caption{Messergebnisse für Leistung $P$ } 
	 \label{tab:Leistung $P$} 
\end{table} 

